Wavelength (nm),Absorbance
1100.0, 1.376
1099.0, 1.366
1098.0, 1.357
1097.0, 1.347
1096.0, 1.336
1095.0, 1.326
1094.0, 1.316
1093.0, 1.306
1092.0, 1.296
1091.0, 1.287
1090.0, 1.277
1089.0, 1.268
1088.0, 1.260
1087.0, 1.251
1086.0, 1.240
1085.0, 1.233
1084.0, 1.224
1083.0, 1.216
1082.0, 1.208
1081.0, 1.198
1080.0, 1.191
1079.0, 1.184
1078.0, 1.177
1077.0, 1.169
1076.0, 1.161
1075.0, 1.153
1074.0, 1.147
1073.0, 1.140
1072.0, 1.135
1071.0, 1.128
1070.0, 1.124
1069.0, 1.118
1068.0, 1.111
1067.0, 1.105
1066.0, 1.099
1065.0, 1.092
1064.0, 1.088
1063.0, 1.083
1062.0, 1.077
1061.0, 1.072
1060.0, 1.066
1059.0, 1.059
1058.0, 1.055
1057.0, 1.052
1056.0, 1.048
1055.0, 1.045
1054.0, 1.045
1053.0, 1.043
1052.0, 1.044
1051.0, 1.043
1050.0, 1.044
1049.0, 1.046
1048.0, 1.050
1047.0, 1.056
1046.0, 1.060
1045.0, 1.067
1044.0, 1.072
1043.0, 1.083
1042.0, 1.097
1041.0, 1.110
1040.0, 1.120
1039.0, 1.120
1038.0, 1.102
1037.0, 1.060
1036.0, 0.999
1035.0, 0.927
1034.0, 0.854
1033.0, 0.790
1032.0, 0.734
1031.0, 0.687
1030.0, 0.651
1029.0, 0.620
1028.0, 0.595
1027.0, 0.580
1026.0, 0.573
1025.0, 0.569
1024.0, 0.571
1023.0, 0.582
1022.0, 0.596
1021.0, 0.618
1020.0, 0.641
1019.0, 0.660
1018.0, 0.678
1017.0, 0.692
1016.0, 0.702
1015.0, 0.708
1014.0, 0.713
1013.0, 0.715
1012.0, 0.721
1011.0, 0.724
1010.0, 0.727
1009.0, 0.729
1008.0, 0.730
1007.0, 0.733
1006.0, 0.735
1005.0, 0.738
1004.0, 0.738
1003.0, 0.741
1002.0, 0.743
1001.0, 0.745
1000.0,0
999.0,0
998.0,0
997.0,0
996.0,0
995.0,0
994.0,0
993.0,0
992.0,0
991.0,0
990.0,0
989.0,0
988.0,0
987.0,0
986.0,0
985.0,0
984.0,0
983.0,0
982.0,0
981.0,0
980.0,0
979.0,0
978.0,0
977.0,0
976.0,0
975.0,0
974.0,0
973.0,0
972.0,0
971.0,0
970.0,0
969.0,0
968.0,0
967.0,0
966.0,0
965.0,0
964.0,0
963.0,0
962.0,0
961.0,0
960.0,0
959.0,0
958.0,0
957.0,0
956.0,0
955.0,0
954.0,0
953.0,0
952.0, 0.001
951.0, 0.005
950.0, 0.010
949.0, 0.016
948.0, 0.022
947.0, 0.031
946.0, 0.035
945.0, 0.043
944.0, 0.052
943.0, 0.061
942.0, 0.071
941.0, 0.080
940.0, 0.090
939.0, 0.101
938.0, 0.116
937.0, 0.128
936.0, 0.143
935.0, 0.157
934.0, 0.177
933.0, 0.195
932.0, 0.215
931.0, 0.241
930.0, 0.265
929.0, 0.288
928.0, 0.319
927.0, 0.352
926.0, 0.389
925.0, 0.425
924.0, 0.468
923.0, 0.519
922.0, 0.574
921.0, 0.628
920.0, 0.700
919.0, 0.779
918.0, 0.866
917.0, 0.954
916.0, 1.068
915.0, 1.188
914.0, 1.318
913.0, 1.443
912.0, 1.592
911.0, 1.748
910.0, 1.914
909.0, 2.058
908.0, 2.203
907.0, 2.320
906.0, 2.391
905.0, 2.440
904.0, 2.467
903.0, 2.489
902.0, 2.503
901.0, 2.519
900.0, 2.527
899.0, 2.535
898.0, 2.552
897.0, 2.552
896.0, 2.569
895.0, 2.578
894.0, 2.577
893.0, 2.596
892.0, 2.605
891.0, 2.615
890.0, 2.616
889.0, 2.616
888.0, 2.637
887.0, 2.646
886.0, 2.645
885.0, 2.643
884.0, 2.652
883.0, 2.640
882.0, 2.639
881.0, 2.648
880.0, 2.647
879.0, 2.635
878.0, 2.624
877.0, 2.613
876.0, 2.602
875.0, 2.582
874.0, 2.573
873.0, 2.555
872.0, 2.529
871.0, 2.497
870.0, 2.460
869.0, 2.427
868.0, 2.383
867.0, 2.338
866.0, 2.293
865.0, 2.248
864.0, 2.198
863.0, 2.148
862.0, 2.099
861.0, 2.044
860.0, 1.995
859.0, 1.939
858.0, 1.891
857.0, 1.833
856.0, 1.786
855.0, 1.738
854.0, 1.694
853.0, 1.648
852.0, 1.607
851.0, 1.568
850.0, 1.526
849.0, 1.488
848.0, 1.450
847.0, 1.416
846.0, 1.380
845.0, 1.350
844.0, 1.317
843.0, 1.290
842.0, 1.260
841.0, 1.236
840.0, 1.210
839.0, 1.187
838.0, 1.167
837.0, 1.146
836.0, 1.128
835.0, 1.110
834.0, 1.095
833.0, 1.082
832.0, 1.068
831.0, 1.057
830.0, 1.046
829.0, 1.037
828.0, 1.028
827.0, 1.021
826.0, 1.015
825.0, 1.008
824.0, 1.003
823.0, 0.995
822.0, 0.991
821.0, 0.984
820.0, 0.978
819.0, 0.972
818.0, 0.964
817.0, 0.956
816.0, 0.948
815.0, 0.938
814.0, 0.931
813.0, 0.922
812.0, 0.915
811.0, 0.904
810.0, 0.896
809.0, 0.888
808.0, 0.883
807.0, 0.876
806.0, 0.867
805.0, 0.863
804.0, 0.857
803.0, 0.853
802.0, 0.847
801.0, 0.842
800.0, 0.839
799.0, 0.837
798.0, 0.835
797.0, 0.831
796.0, 0.829
795.0, 0.827
794.0, 0.827
793.0, 0.826
792.0, 0.824
791.0, 0.823
790.0, 0.820
789.0, 0.818
788.0, 0.818
787.0, 0.815
786.0, 0.814
785.0, 0.811
784.0, 0.810
783.0, 0.808
782.0, 0.805
781.0, 0.801
780.0, 0.798
779.0, 0.796
778.0, 0.791
777.0, 0.786
776.0, 0.781
775.0, 0.777
774.0, 0.771
773.0, 0.766
772.0, 0.760
771.0, 0.754
770.0, 0.748
769.0, 0.740
768.0, 0.734
767.0, 0.726
766.0, 0.718
765.0, 0.710
764.0, 0.701
763.0, 0.690
762.0, 0.681
761.0, 0.670
760.0, 0.657
759.0, 0.649
758.0, 0.636
757.0, 0.626
756.0, 0.613
755.0, 0.600
754.0, 0.588
753.0, 0.576
752.0, 0.563
751.0, 0.551
750.0, 0.535
749.0, 0.522
748.0, 0.511
747.0, 0.496
746.0, 0.484
745.0, 0.468
744.0, 0.456
743.0, 0.444
742.0, 0.430
741.0, 0.420
740.0, 0.409
739.0, 0.396
738.0, 0.385
737.0, 0.375
736.0, 0.363
735.0, 0.354
734.0, 0.344
733.0, 0.336
732.0, 0.328
731.0, 0.318
730.0, 0.310
729.0, 0.304
728.0, 0.295
727.0, 0.289
726.0, 0.281
725.0, 0.274
724.0, 0.268
723.0, 0.261
722.0, 0.255
721.0, 0.251
720.0, 0.244
719.0, 0.239
718.0, 0.234
717.0, 0.232
716.0, 0.226
715.0, 0.221
714.0, 0.217
713.0, 0.210
712.0, 0.208
711.0, 0.203
710.0, 0.199
709.0, 0.196
708.0, 0.192
707.0, 0.188
706.0, 0.184
705.0, 0.179
704.0, 0.175
703.0, 0.172
702.0, 0.169
701.0, 0.166
700.0, 0.162
699.0, 0.159
698.0, 0.154
697.0, 0.152
696.0, 0.148
695.0, 0.148
694.0, 0.143
693.0, 0.138
692.0, 0.135
691.0, 0.133
690.0, 0.130
689.0, 0.127
688.0, 0.124
687.0, 0.123
686.0, 0.118
685.0, 0.117
684.0, 0.114
683.0, 0.110
682.0, 0.108
681.0, 0.104
680.0, 0.103
679.0, 0.099
678.0, 0.097
677.0, 0.092
676.0, 0.092
675.0, 0.088
674.0, 0.084
673.0, 0.083
672.0, 0.079
671.0, 0.077
670.0, 0.075
669.0, 0.072
668.0, 0.070
667.0, 0.068
666.0, 0.065
665.0, 0.064
664.0, 0.062
663.0, 0.059
662.0, 0.057
661.0, 0.055
660.0, 0.052
659.0, 0.049
658.0, 0.046
657.0, 0.045
656.0, 0.043
655.0, 0.041
654.0, 0.040
653.0, 0.037
652.0, 0.035
651.0, 0.034
650.0, 0.030
649.0, 0.026
648.0, 0.027
647.0, 0.025
646.0, 0.022
645.0, 0.020
644.0, 0.016
643.0, 0.012
642.0, 0.008
641.0, 0.003
640.0, 0.000
639.0,0
638.0,0
637.0, 0.000
636.0, 0.001
635.0, 0.005
634.0, 0.009
633.0, 0.009
632.0, 0.009
631.0, 0.008
630.0, 0.007
629.0, 0.003
628.0, 0.001
627.0,0
626.0,0
625.0,0
624.0,0
623.0,0
622.0,0
621.0,0
620.0,0
619.0,0
618.0,0
617.0,0
616.0,0
615.0,0
614.0,0
613.0,0
612.0,0
611.0,0
610.0,0
609.0,0
608.0,0
607.0,0
606.0,0
605.0,0
604.0,0
603.0,0
602.0,0
601.0,0
600.0,0
599.0,0
598.0,0
597.0,0
596.0,0
595.0,0
594.0,0
593.0,0
592.0,0
591.0,0
590.0,0
589.0,0
588.0,0
587.0,0
586.0,0
585.0,0
584.0,0
583.0,0
582.0,0
581.0,0
580.0,0
579.0,0
578.0,0
577.0,0
576.0,0
575.0,0
574.0,0
573.0,0
572.0,0
571.0,0
570.0,0
569.0,0
568.0,0
567.0,0
566.0,0
565.0,0
564.0,0
563.0,0
562.0,0
561.0,0
560.0,0
559.0,0
558.0,0
557.0,0
556.0,0
555.0,0
554.0,0
553.0,0
552.0,0
551.0,0
550.0,0
549.0,0
548.0,0
547.0,0
546.0,0
545.0,0
544.0,0
543.0,0
542.0,0
541.0,0
540.0,0
539.0,0
538.0,0
537.0,0
536.0,0
535.0,0
534.0,0
533.0,0
532.0,0
531.0,0
530.0,0
529.0,0
528.0,0
527.0,0
526.0,0
525.0,0
524.0,0
523.0,0
522.0,0
521.0,0
520.0,0
519.0,0
518.0,0
517.0,0
516.0,0
515.0,0
514.0,0
513.0,0
512.0,0
511.0,0
510.0,0
509.0,0
508.0,0
507.0,0
506.0,0
505.0,0
504.0,0
503.0,0
502.0,0
501.0,0
500.0,0
499.0, 1.215
498.0, 1.219
497.0, 1.223
496.0, 1.229
495.0, 1.233
494.0, 1.237
493.0, 1.241
492.0, 1.247
491.0, 1.252
490.0, 1.259
489.0, 1.266
488.0, 1.272
487.0, 1.277
486.0, 1.283
485.0, 1.292
484.0, 1.301
483.0, 1.308
482.0, 1.315
481.0, 1.323
480.0, 1.333
479.0, 1.343
478.0, 1.351
477.0, 1.361
476.0, 1.370
475.0, 1.379
474.0, 1.388
473.0, 1.397
472.0, 1.406
471.0, 1.412
470.0, 1.418
469.0, 1.424
468.0, 1.427
467.0, 1.427
466.0, 1.428
465.0, 1.431
464.0, 1.431
463.0, 1.435
462.0, 1.441
461.0, 1.451
460.0, 1.459
459.0, 1.472
458.0, 1.482
457.0, 1.499
456.0, 1.516
455.0, 1.530
454.0, 1.544
453.0, 1.557
452.0, 1.567
451.0, 1.577
450.0, 1.586
449.0, 1.590
448.0, 1.589
447.0, 1.584
446.0, 1.576
445.0, 1.563
444.0, 1.549
443.0, 1.535
442.0, 1.518
441.0, 1.505
440.0, 1.494
439.0, 1.489
438.0, 1.485
437.0, 1.487
436.0, 1.491
435.0, 1.497
434.0, 1.506
433.0, 1.516
432.0, 1.529
431.0, 1.539
430.0, 1.552
429.0, 1.565
428.0, 1.577
427.0, 1.589
426.0, 1.603
425.0, 1.615
424.0, 1.628
423.0, 1.639
422.0, 1.653
421.0, 1.667
420.0, 1.678
419.0, 1.691
418.0, 1.706
417.0, 1.718
416.0, 1.901
415.0, 1.907
414.0, 1.917
413.0, 1.923
412.0, 1.931
411.0, 1.939
410.0, 1.948
409.0, 1.954
408.0, 1.965
407.0, 1.972
406.0, 1.983
405.0, 1.992
404.0, 2.002
403.0, 2.011
402.0, 2.019
401.0, 2.029
400.0,0
399.0, 2.050
398.0, 2.064
397.0, 2.073
396.0, 2.084
395.0, 2.098
394.0, 2.108
393.0, 2.123
392.0, 2.141
391.0, 2.152
390.0, 2.168
389.0, 2.183
388.0, 2.200
387.0, 2.216
386.0, 2.235
385.0, 2.249
384.0, 2.266
383.0, 2.280
382.0, 2.299
381.0, 2.318
380.0, 2.339
379.0, 2.351
378.0, 2.378
377.0, 2.392
376.0, 2.411
375.0, 2.432
374.0, 2.453
373.0, 2.475
372.0, 2.492
371.0, 2.517
370.0, 2.536
369.0, 2.556
368.0, 2.578
367.0, 2.608
366.0, 2.623
365.0, 2.550
364.0, 2.543
363.0, 2.543
362.0, 2.536
361.0, 2.536
360.0, 2.536
359.0, 2.536
358.0, 2.536
357.0, 2.536
356.0, 2.550
355.0, 2.556
354.0, 2.556
353.0, 2.563
352.0, 2.578
351.0, 2.578
350.0, 2.592
349.0, 2.608
348.0, 2.615
347.0, 2.623
346.0, 2.640
345.0, 2.657
344.0, 2.666
343.0, 2.675
342.0, 2.684
341.0, 2.703
340.0, 2.648
339.0, 2.640
338.0, 2.640
337.0, 2.640
336.0, 2.640
335.0, 2.640
334.0, 2.648
333.0, 2.648
332.0, 2.657
331.0, 2.648
330.0, 2.648
329.0, 2.657
328.0, 2.666
327.0, 2.666
326.0, 2.675
325.0, 2.675
324.0, 2.675
323.0, 2.675
322.0, 2.675
321.0, 2.675
320.0, 2.693
319.0, 2.703
318.0, 2.712
317.0, 2.722
316.0, 2.743
315.0, 2.754
314.0, 2.776
313.0, 2.799
312.0, 2.824
311.0, 2.837
310.0, 2.864
309.0, 2.909
308.0, 2.958
307.0, 2.994
306.0, 2.909
305.0, 2.941
304.0, 3.013
303.0, 3.100
302.0, 3.152
301.0, 3.242
300.0, 0.367
299.0, 3.453
298.0, 3.511
297.0, 3.657
296.0, 3.754
295.0, 4.000
294.0, 4.000
293.0, 4.000
292.0, 4.000
291.0, 4.000
290.0, 4.000
289.0, 4.000
288.0, 4.000
287.0, 4.000
286.0, 4.000
285.0, 4.000
284.0, 4.000
283.0, 4.000
282.0, 4.000
281.0, 4.000
280.0, 4.000
279.0, 4.000
278.0, 4.000
277.0, 4.000
276.0, 4.000
275.0, 4.000
274.0, 4.000
273.0, 4.000
272.0, 4.000
271.0, 4.000
270.0, 4.000
269.0, 4.000
268.0, 4.000
267.0, 4.000
266.0, 4.000
265.0, 4.000
264.0, 4.000
263.0, 4.000
262.0, 4.000
261.0, 4.000
260.0, 4.000
259.0, 4.000
258.0, 4.000
257.0, 4.000
256.0, 4.000
255.0, 4.000
254.0, 4.000
253.0, 4.000
252.0, 4.000
251.0, 4.000
250.0, 4.000
249.0, 4.000
248.0, 4.000
247.0, 4.000
246.0, 4.000
245.0, 4.000
244.0, 4.000
243.0, 4.000
242.0, 4.000
241.0, 4.000
240.0, 4.000
239.0, 4.000
238.0, 4.000
237.0, 4.000
236.0, 4.000
235.0, 4.000
234.0, 4.000
233.0, 4.000
232.0, 4.000
231.0, 4.000
230.0, 4.000
229.0, 4.000
228.0, 4.000
227.0, 4.000
226.0, 4.000
225.0, 4.000
224.0, 4.000
223.0, 4.000
222.0, 4.000
221.0, 4.000
220.0, 4.000
219.0, 4.000
218.0, 4.000
217.0, 4.000
216.0, 4.000
215.0, 4.000
214.0, 4.000
213.0, 4.000
212.0, 4.000
211.0, 4.000
210.0, 4.000
209.0, 4.000
208.0, 4.000
207.0, 4.000
206.0, 4.000
205.0, 4.000
204.0, 4.000
203.0, 4.000
202.0, 4.000
201.0, 4.000
200.0, 4.000
####,####
 Gain : ,3
 Light Source : ,D2 lamp
 Mode : ,Absorbance
 Time : ,23/02/2016-11:13:46
####,####
