Wavelength (nm),Absorbance
1000.0, 0.188
999.0, 0.188
998.0, 0.190
997.0, 0.190
996.0, 0.191
995.0, 0.191
994.0, 0.193
993.0, 0.193
992.0, 0.194
991.0, 0.196
990.0, 0.196
989.0, 0.197
988.0, 0.198
987.0, 0.199
986.0, 0.200
985.0, 0.201
984.0, 0.202
983.0, 0.203
982.0, 0.205
981.0, 0.207
980.0, 0.208
979.0, 0.209
978.0, 0.211
977.0, 0.212
976.0, 0.213
975.0, 0.216
974.0, 0.217
973.0, 0.218
972.0, 0.221
971.0, 0.223
970.0, 0.224
969.0, 0.227
968.0, 0.230
967.0, 0.232
966.0, 0.234
965.0, 0.237
964.0, 0.240
963.0, 0.242
962.0, 0.245
961.0, 0.248
960.0, 0.252
959.0, 0.256
958.0, 0.260
957.0, 0.264
956.0, 0.268
955.0, 0.271
954.0, 0.277
953.0, 0.280
952.0, 0.286
951.0, 0.291
950.0, 0.297
949.0, 0.302
948.0, 0.308
947.0, 0.316
946.0, 0.323
945.0, 0.329
944.0, 0.336
943.0, 0.346
942.0, 0.354
941.0, 0.363
940.0, 0.374
939.0, 0.385
938.0, 0.398
937.0, 0.410
936.0, 0.425
935.0, 0.441
934.0, 0.458
933.0, 0.475
932.0, 0.495
931.0, 0.518
930.0, 0.542
929.0, 0.566
928.0, 0.595
927.0, 0.627
926.0, 0.662
925.0, 0.696
924.0, 0.739
923.0, 0.786
922.0, 0.840
921.0, 0.893
920.0, 0.961
919.0, 1.035
918.0, 1.120
917.0, 1.202
916.0, 1.310
915.0, 1.427
914.0, 1.548
913.0, 1.665
912.0, 1.804
911.0, 1.949
910.0, 2.103
909.0, 2.237
908.0, 2.368
907.0, 2.464
906.0, 2.526
905.0, 2.563
904.0, 2.589
903.0, 2.603
902.0, 2.612
901.0, 2.617
900.0, 2.626
899.0, 2.631
898.0, 2.637
897.0, 2.642
896.0, 2.647
895.0, 2.652
894.0, 2.662
893.0, 2.667
892.0, 2.672
891.0, 2.672
890.0, 2.684
889.0, 2.685
888.0, 2.691
887.0, 2.690
886.0, 2.694
885.0, 2.698
884.0, 2.697
883.0, 2.695
882.0, 2.694
881.0, 2.693
880.0, 2.692
879.0, 2.691
878.0, 2.684
877.0, 2.683
876.0, 2.671
875.0, 2.665
874.0, 2.654
873.0, 2.643
872.0, 2.622
871.0, 2.608
870.0, 2.584
869.0, 2.562
868.0, 2.533
867.0, 2.505
866.0, 2.469
865.0, 2.435
864.0, 2.401
863.0, 2.358
862.0, 2.317
861.0, 2.274
860.0, 2.232
859.0, 2.183
858.0, 2.140
857.0, 2.092
856.0, 2.048
855.0, 2.002
854.0, 1.963
853.0, 1.919
852.0, 1.882
851.0, 1.844
850.0, 1.803
849.0, 1.769
848.0, 1.731
847.0, 1.699
846.0, 1.664
845.0, 1.634
844.0, 1.601
843.0, 1.574
842.0, 1.546
841.0, 1.522
840.0, 1.496
839.0, 1.474
838.0, 1.454
837.0, 1.432
836.0, 1.416
835.0, 1.398
834.0, 1.383
833.0, 1.370
832.0, 1.356
831.0, 1.346
830.0, 1.335
829.0, 1.325
828.0, 1.316
827.0, 1.310
826.0, 1.304
825.0, 1.298
824.0, 1.292
823.0, 1.286
822.0, 1.281
821.0, 1.274
820.0, 1.269
819.0, 1.263
818.0, 1.254
817.0, 1.247
816.0, 1.239
815.0, 1.231
814.0, 1.222
813.0, 1.212
812.0, 1.205
811.0, 1.196
810.0, 1.188
809.0, 1.180
808.0, 1.173
807.0, 1.167
806.0, 1.159
805.0, 1.153
804.0, 1.147
803.0, 1.143
802.0, 1.138
801.0, 1.134
800.0, 1.131
####,####
 Gain : ,3
 Light Source : ,2
 Mode : ,D2 lamp
 Time : ,23/02/2016-09:42:06
####,####
