Wavelength (nm),Absorbance
900.0, 2.527
899.5, 2.531
899.0, 2.539
898.5, 2.548
898.0, 2.552
897.5, 2.552
897.0, 2.556
896.5, 2.565
896.0, 2.569
895.5, 2.569
895.0, 2.573
894.5, 2.582
894.0, 2.586
893.5, 2.591
893.0, 2.595
892.5, 2.600
892.0, 2.605
891.5, 2.605
891.0, 2.610
890.5, 2.620
890.0, 2.621
889.5, 2.626
889.0, 2.636
888.5, 2.637
888.0, 2.636
887.5, 2.641
887.0, 2.641
886.5, 2.640
886.0, 2.644
885.5, 2.643
885.0, 2.642
884.5, 2.642
884.0, 2.641
883.5, 2.646
883.0, 2.650
882.5, 2.650
882.0, 2.644
881.5, 2.638
881.0, 2.637
880.5, 2.636
880.0, 2.636
879.5, 2.630
879.0, 2.625
878.5, 2.624
878.0, 2.624
877.5, 2.618
877.0, 2.612
876.5, 2.612
876.0, 2.607
875.5, 2.597
875.0, 2.587
874.5, 2.582
874.0, 2.573
873.5, 2.559
873.0, 2.550
872.5, 2.537
872.0, 2.521
871.5, 2.505
871.0, 2.490
870.5, 2.475
870.0, 2.461
869.5, 2.440
869.0, 2.420
868.5, 2.401
868.0, 2.377
867.5, 2.358
867.0, 2.339
866.5, 2.313
866.0, 2.284
865.5, 2.261
865.0, 2.237
864.5, 2.212
864.0, 2.187
863.5, 2.162
863.0, 2.138
862.5, 2.113
862.0, 2.087
861.5, 2.058
861.0, 2.033
860.5, 2.009
860.0, 1.980
859.5, 1.953
859.0, 1.928
858.5, 1.904
858.0, 1.879
857.5, 1.852
857.0, 1.825
856.5, 1.800
856.0, 1.777
855.5, 1.753
855.0, 1.728
854.5, 1.706
854.0, 1.685
853.5, 1.661
853.0, 1.638
852.5, 1.618
852.0, 1.599
851.5, 1.579
851.0, 1.557
850.5, 1.536
850.0, 1.517
849.5, 1.500
849.0, 1.479
848.5, 1.459
848.0, 1.442
847.5, 1.426
847.0, 1.408
846.5, 1.390
846.0, 1.373
845.5, 1.358
845.0, 1.343
844.5, 1.326
844.0, 1.310
843.5, 1.297
843.0, 1.284
842.5, 1.269
842.0, 1.254
841.5, 1.242
841.0, 1.231
840.5, 1.218
840.0, 1.204
839.5, 1.193
839.0, 1.183
838.5, 1.173
838.0, 1.161
837.5, 1.150
837.0, 1.141
836.5, 1.132
836.0, 1.125
835.5, 1.115
835.0, 1.107
834.5, 1.099
834.0, 1.093
833.5, 1.086
833.0, 1.079
832.5, 1.072
832.0, 1.066
831.5, 1.060
831.0, 1.054
830.5, 1.048
830.0, 1.045
829.5, 1.040
829.0, 1.035
828.5, 1.031
828.0, 1.028
827.5, 1.024
827.0, 1.019
826.5, 1.015
826.0, 1.012
825.5, 1.010
825.0, 1.008
824.5, 1.005
824.0, 1.002
823.5, 1.000
823.0, 0.997
822.5, 0.992
822.0, 0.989
821.5, 0.987
821.0, 0.984
820.5, 0.980
820.0, 0.976
819.5, 0.974
819.0, 0.970
818.5, 0.966
818.0, 0.962
817.5, 0.958
817.0, 0.954
816.5, 0.950
816.0, 0.946
815.5, 0.942
815.0, 0.937
814.5, 0.932
814.0, 0.929
813.5, 0.924
813.0, 0.920
812.5, 0.917
812.0, 0.912
811.5, 0.908
811.0, 0.904
810.5, 0.899
810.0, 0.895
809.5, 0.892
809.0, 0.888
808.5, 0.885
808.0, 0.881
807.5, 0.879
807.0, 0.875
806.5, 0.871
806.0, 0.868
805.5, 0.864
805.0, 0.862
804.5, 0.860
804.0, 0.857
803.5, 0.854
803.0, 0.852
802.5, 0.849
802.0, 0.847
801.5, 0.846
801.0, 0.843
800.5, 0.841
800.0, 0.838
799.5, 0.837
799.0, 0.837
798.5, 0.835
798.0, 0.833
797.5, 0.832
797.0, 0.831
796.5, 0.829
796.0, 0.828
795.5, 0.827
795.0, 0.826
794.5, 0.826
794.0, 0.826
793.5, 0.825
793.0, 0.823
792.5, 0.823
792.0, 0.823
791.5, 0.822
791.0, 0.821
790.5, 0.819
790.0, 0.819
789.5, 0.819
789.0, 0.818
788.5, 0.818
788.0, 0.818
787.5, 0.817
787.0, 0.815
786.5, 0.813
786.0, 0.812
785.5, 0.812
785.0, 0.811
784.5, 0.810
784.0, 0.808
783.5, 0.807
783.0, 0.805
782.5, 0.803
782.0, 0.803
781.5, 0.802
781.0, 0.800
780.5, 0.799
780.0, 0.797
779.5, 0.796
779.0, 0.794
778.5, 0.792
778.0, 0.788
777.5, 0.786
777.0, 0.784
776.5, 0.782
776.0, 0.779
775.5, 0.777
775.0, 0.774
774.5, 0.772
774.0, 0.770
773.5, 0.767
773.0, 0.764
772.5, 0.761
772.0, 0.757
771.5, 0.754
771.0, 0.752
770.5, 0.749
770.0, 0.746
769.5, 0.741
769.0, 0.738
768.5, 0.734
768.0, 0.730
767.5, 0.726
767.0, 0.723
766.5, 0.719
766.0, 0.715
765.5, 0.711
765.0, 0.706
764.5, 0.702
764.0, 0.698
763.5, 0.693
763.0, 0.689
762.5, 0.685
762.0, 0.679
761.5, 0.672
761.0, 0.667
760.5, 0.661
760.0, 0.655
759.5, 0.651
759.0, 0.644
758.5, 0.639
758.0, 0.633
757.5, 0.628
757.0, 0.622
756.5, 0.616
756.0, 0.609
755.5, 0.603
755.0, 0.597
754.5, 0.591
754.0, 0.586
753.5, 0.580
753.0, 0.573
752.5, 0.567
752.0, 0.561
751.5, 0.554
751.0, 0.546
750.5, 0.539
750.0, 0.532
749.5, 0.525
749.0, 0.519
748.5, 0.512
748.0, 0.506
747.5, 0.500
747.0, 0.493
746.5, 0.485
746.0, 0.479
745.5, 0.473
745.0, 0.466
744.5, 0.460
744.0, 0.454
743.5, 0.448
743.0, 0.443
742.5, 0.435
742.0, 0.428
741.5, 0.422
741.0, 0.417
740.5, 0.411
740.0, 0.405
739.5, 0.400
739.0, 0.394
738.5, 0.389
738.0, 0.383
737.5, 0.377
737.0, 0.372
736.5, 0.367
736.0, 0.362
735.5, 0.357
735.0, 0.352
734.5, 0.347
734.0, 0.343
733.5, 0.338
733.0, 0.334
732.5, 0.329
732.0, 0.324
731.5, 0.320
731.0, 0.315
730.5, 0.311
730.0, 0.308
729.5, 0.305
729.0, 0.301
728.5, 0.296
728.0, 0.293
727.5, 0.289
727.0, 0.285
726.5, 0.283
726.0, 0.280
725.5, 0.277
725.0, 0.273
724.5, 0.270
724.0, 0.267
723.5, 0.263
723.0, 0.260
722.5, 0.257
722.0, 0.255
721.5, 0.252
721.0, 0.250
720.5, 0.246
720.0, 0.243
719.5, 0.240
719.0, 0.238
718.5, 0.236
718.0, 0.233
717.5, 0.231
717.0, 0.228
716.5, 0.226
716.0, 0.224
715.5, 0.221
715.0, 0.219
714.5, 0.218
714.0, 0.215
713.5, 0.214
713.0, 0.212
712.5, 0.209
712.0, 0.206
711.5, 0.204
711.0, 0.203
710.5, 0.200
710.0, 0.197
709.5, 0.195
709.0, 0.194
708.5, 0.192
708.0, 0.191
707.5, 0.189
707.0, 0.187
706.5, 0.184
706.0, 0.182
705.5, 0.180
705.0, 0.178
704.5, 0.177
704.0, 0.174
703.5, 0.172
703.0, 0.171
702.5, 0.169
702.0, 0.168
701.5, 0.166
701.0, 0.164
700.5, 0.164
700.0, 0.162
699.5, 0.159
699.0, 0.158
698.5, 0.156
698.0, 0.154
697.5, 0.152
697.0, 0.151
696.5, 0.149
696.0, 0.147
695.5, 0.146
695.0, 0.145
694.5, 0.143
694.0, 0.141
693.5, 0.139
693.0, 0.137
692.5, 0.136
692.0, 0.135
691.5, 0.133
691.0, 0.132
690.5, 0.131
690.0, 0.130
689.5, 0.127
689.0, 0.126
688.5, 0.125
688.0, 0.123
687.5, 0.122
687.0, 0.122
686.5, 0.119
686.0, 0.117
685.5, 0.116
685.0, 0.114
684.5, 0.113
684.0, 0.112
683.5, 0.110
683.0, 0.109
682.5, 0.108
682.0, 0.107
681.5, 0.106
681.0, 0.104
680.5, 0.103
680.0, 0.101
679.5, 0.100
679.0, 0.098
678.5, 0.096
678.0, 0.096
677.5, 0.094
677.0, 0.093
676.5, 0.092
676.0, 0.091
675.5, 0.089
675.0, 0.088
674.5, 0.086
674.0, 0.084
673.5, 0.084
673.0, 0.083
672.5, 0.081
672.0, 0.079
671.5, 0.078
671.0, 0.076
670.5, 0.075
670.0, 0.074
669.5, 0.073
669.0, 0.073
668.5, 0.071
668.0, 0.069
667.5, 0.068
667.0, 0.066
666.5, 0.065
666.0, 0.064
665.5, 0.063
665.0, 0.063
664.5, 0.062
664.0, 0.061
663.5, 0.059
663.0, 0.058
662.5, 0.057
662.0, 0.055
661.5, 0.055
661.0, 0.055
660.5, 0.054
660.0, 0.051
659.5, 0.049
659.0, 0.049
658.5, 0.048
658.0, 0.045
657.5, 0.044
657.0, 0.043
656.5, 0.043
656.0, 0.042
655.5, 0.041
655.0, 0.039
654.5, 0.037
654.0, 0.036
653.5, 0.035
653.0, 0.035
652.5, 0.034
652.0, 0.033
651.5, 0.032
651.0, 0.031
650.5, 0.031
650.0, 0.030
649.5, 0.028
649.0, 0.027
648.5, 0.025
648.0, 0.024
647.5, 0.024
647.0, 0.023
646.5, 0.022
646.0, 0.021
645.5, 0.019
645.0, 0.017
644.5, 0.015
644.0, 0.013
643.5, 0.010
643.0, 0.008
642.5, 0.006
642.0, 0.005
641.5, 0.003
641.0, -0.000
640.5, -0.001
640.0, -0.000
639.5, -0.002
639.0, -0.003
638.5, -0.003
638.0, -0.003
637.5, -0.002
637.0, -0.001
636.5, 0.000
636.0, 0.001
635.5, 0.004
635.0, 0.005
634.5, 0.006
634.0, 0.008
633.5, 0.008
633.0, 0.009
632.5, 0.009
632.0, 0.009
631.5, 0.008
631.0, 0.007
630.5, 0.006
630.0, 0.004
629.5, 0.003
629.0, 0.003
628.5, 0.001
628.0, -0.001
627.5, -0.001
627.0, -0.002
626.5, -0.004
626.0, -0.004
625.5, -0.005
625.0, -0.006
624.5, -0.009
624.0, -0.010
623.5, -0.010
623.0, -0.010
622.5, -0.011
622.0, -0.012
621.5, -0.013
621.0, -0.014
620.5, -0.015
620.0, -0.015
619.5, -0.016
619.0, -0.017
618.5, -0.018
618.0, -0.019
617.5, -0.019
617.0, -0.020
616.5, -0.021
616.0, -0.021
615.5, -0.021
615.0, -0.022
614.5, -0.022
614.0, -0.024
613.5, -0.026
613.0, -0.026
612.5, -0.026
612.0, -0.026
611.5, -0.026
611.0, -0.027
610.5, -0.028
610.0, -0.030
609.5, -0.030
609.0, -0.031
608.5, -0.031
608.0, -0.032
607.5, -0.032
607.0, -0.032
606.5, -0.032
606.0, -0.032
605.5, -0.035
605.0, -0.036
604.5, -0.037
604.0, -0.037
603.5, -0.037
603.0, -0.037
602.5, -0.037
602.0, -0.038
601.5, -0.039
601.0, -0.039
600.5, -0.039
600.0, -0.039
####,####
 Gain : ,3
 Light Source : ,2
 Mode : ,D2 lamp
 Time : ,23/02/2016-11:02:13
####,####
